# dimensionless total [l(l+1)/2pi] C_l's
# for l=2 to 3000, i.e. number of multipoles equal to 2999
#
# -> if you prefer output in CAMB/HealPix/LensPix units/order, set 'format' to 'camb' in input file
# -> if you don't want to see such a header, set 'headers' to 'no' in input file
# -> for CMB lensing (phi), these are C_l^phi-phi for the lensing potential.
#    Remember the conversion factors:
#    C_l^dd (deflection) = l(l+1) C_l^phi-phi
#    C_l^gg (shear/convergence) = 1/4 (l(l+1))^2 C_l^phi-phi
#
# 1:l     2:TT                     3:EE                     4:TE                     5:BB                     6:phiphi                 7:TPhi                   8:Ephi               
    2       1.495437887210e-10       7.309026172911e-15       4.815171199968e-13       0.000000000000e+00       8.628903609647e-09       4.854772125132e-10      -2.515854151611e-12 
    3       1.409365943160e-10       1.238791651651e-14       6.068719691959e-13       0.000000000000e+00       5.411291720448e-09       3.469573585514e-10      -2.211507031147e-12 
    4       1.324622774428e-10       1.446512635931e-14       6.277976520576e-13       0.000000000000e+00       3.776588552321e-09       2.639785050814e-10      -1.764116067081e-12 
    5       1.257504767420e-10       1.337853519882e-14       5.879551647000e-13       0.000000000000e+00       2.821984229984e-09       2.093815839158e-10      -1.309529286441e-12 
    6       1.208053913249e-10       1.032310747924e-14       5.173990841439e-13       0.000000000000e+00       2.205212282908e-09       1.709429029052e-10      -8.948468925448e-13 
    7       1.173297571793e-10       6.841600365876e-15       4.365335862025e-13       0.000000000000e+00       1.778233642563e-09       1.425663900771e-10      -5.443860557744e-13 
    8       1.150037074268e-10       4.042374146249e-15       3.576623511397e-13       0.000000000000e+00       1.468351550612e-09       1.208855287041e-10      -2.689334595821e-13 
    9       1.135829010676e-10       2.336357197398e-15       2.880590507289e-13       0.000000000000e+00       1.235838580484e-09       1.038809735205e-10      -7.009986710377e-14 
   10       1.128526891660e-10       1.571653533687e-15       2.317799681295e-13       0.000000000000e+00       1.056623420589e-09       9.029297738437e-11       5.745597591791e-14 
   11       1.126728149357e-10       1.345905907612e-15       1.905574141939e-13       0.000000000000e+00       8.886898863579e-10       7.950622621205e-11       1.233291888107e-13 
   12       1.129346479159e-10       1.288312421122e-15       1.640636561743e-13       0.000000000000e+00       7.765278491923e-10       7.028426672917e-11       1.421600854593e-13 
   13       1.135181529486e-10       1.200674797102e-15       1.505300363055e-13       0.000000000000e+00       6.844563324660e-10       6.274647521793e-11       1.277329345112e-13 
   14       1.143248537164e-10       1.054790798632e-15       1.474046706733e-13       0.000000000000e+00       6.078507020103e-10       5.620932691678e-11       9.279532800198e-14 
   15       1.153611555820e-10       9.105397340069e-16       1.516730192898e-13       0.000000000000e+00       5.433693948320e-10       5.074770630671e-11       4.959311354153e-14 
   16       1.165881727235e-10       8.293959318796e-16       1.602914709962e-13       0.000000000000e+00       4.885455303803e-10       4.611880685963e-11       7.232456990711e-15 
   17       1.179228768537e-10       8.287731533342e-16       1.707806936782e-13       0.000000000000e+00       4.415155572866e-10       4.212235068535e-11      -2.792920703276e-14 
   18       1.193693330932e-10       8.811664361848e-16       1.812740701487e-13       0.000000000000e+00       4.006946005706e-10       3.857273461184e-11      -5.233421672036e-14 
   19       1.209354735891e-10       9.538926646958e-16       1.907919251559e-13       0.000000000000e+00       3.654375301951e-10       3.544037677889e-11      -6.510245763352e-14 
   20       1.225654212357e-10       1.013472815647e-15       1.985909989867e-13       0.000000000000e+00       3.343837601819e-10       3.267209105919e-11      -6.706958872952e-14 
   21       1.242710988840e-10       1.062834165227e-15       2.047508483995e-13       0.000000000000e+00       3.070458375820e-10       3.022365555566e-11      -6.038518073726e-14 
   22       1.260522065964e-10       1.120089788912e-15       2.097242388126e-13       0.000000000000e+00       2.827706819936e-10       2.801369668284e-11      -4.840846306895e-14 
   23       1.278979535803e-10       1.204635700184e-15       2.139590306845e-13       0.000000000000e+00       2.612248132387e-10       2.601113570530e-11      -3.407762214460e-14 
   24       1.297762580423e-10       1.335071215299e-15       2.179755427400e-13       0.000000000000e+00       2.419102418006e-10       2.418236731247e-11      -2.047693838631e-14 
   25       1.317039915794e-10       1.511806345182e-15       2.222685096395e-13       0.000000000000e+00       2.246000750366e-10       2.253677283378e-11      -9.447599831570e-15 
   26       1.336934817869e-10       1.727825392923e-15       2.272832349586e-13       0.000000000000e+00       2.089813614554e-10       2.107676123556e-11      -2.331878290799e-15 
   27       1.357258782462e-10       1.976711990810e-15       2.330399220656e-13       0.000000000000e+00       1.948668546972e-10       1.976942692856e-11       6.620870368309e-16 
   28       1.377655511965e-10       2.252057271930e-15       2.393544111104e-13       0.000000000000e+00       1.820132712747e-10       1.856395064158e-11      -9.525902235729e-17 
   29       1.398222359112e-10       2.553377841741e-15       2.459228013160e-13       0.000000000000e+00       1.703550512424e-10       1.745584867796e-11      -3.801164417748e-15 
   30       1.419101735112e-10       2.881917843310e-15       2.523094510061e-13       0.000000000000e+00       1.597671041325e-10       1.644630544105e-11      -9.226624625758e-15 
   31       1.440332195668e-10       3.238301828584e-15       2.580005827476e-13       0.000000000000e+00       1.500335692977e-10       1.552718029409e-11      -1.492866615660e-14 
   32       1.461942637784e-10       3.620417545705e-15       2.626239878739e-13       0.000000000000e+00       1.411042582481e-10       1.468921480202e-11      -2.002926972444e-14 
   33       1.483866090416e-10       4.024639251889e-15       2.658009010688e-13       0.000000000000e+00       1.329161009476e-10       1.391497670842e-11      -2.370100743232e-14 
   34       1.505973844664e-10       4.447817450693e-15       2.671636669688e-13       0.000000000000e+00       1.253545981829e-10       1.318309427688e-11      -2.518539343473e-14 
   35       1.528332215893e-10       4.892544928781e-15       2.666307506873e-13       0.000000000000e+00       1.183811085987e-10       1.249406638311e-11      -2.459200617721e-14 
   36       1.551019060956e-10       5.363799237260e-15       2.642298487663e-13       0.000000000000e+00       1.119397475565e-10       1.185261321243e-11      -2.238999388029e-14 
   37       1.574058381708e-10       5.866748480970e-15       2.600329640820e-13       0.000000000000e+00       1.059467509754e-10       1.126054196352e-11      -1.915231698374e-14 
   38       1.597454873675e-10       6.403718088268e-15       2.541715755302e-13       0.000000000000e+00       1.003866707360e-10       1.071670082416e-11      -1.535846157690e-14 
   39       1.621158477045e-10       6.976268060041e-15       2.468320929962e-13       0.000000000000e+00       9.524189560959e-11       1.021646105951e-11      -1.154171649587e-14 
   40       1.645046237203e-10       7.586006461559e-15       2.382561875249e-13       0.000000000000e+00       9.046338868540e-11       9.751315792227e-12      -8.351244164496e-15 
   41       1.668978696074e-10       8.234293961937e-15       2.286722632434e-13       0.000000000000e+00       8.598777924915e-11       9.311592848687e-12      -6.389559684246e-15 
   42       1.693007832666e-10       8.921239577700e-15       2.180548501090e-13       0.000000000000e+00       8.180192043366e-11       8.896431675780e-12      -5.644107547184e-15 
   43       1.717225129485e-10       9.646379548310e-15       2.062926219825e-13       0.000000000000e+00       7.789473295748e-11       8.506510737332e-12      -5.882708570636e-15 
   44       1.741701540498e-10       1.040892638794e-14       1.932520634825e-13       0.000000000000e+00       7.423783277226e-11       8.141179944565e-12      -6.802861950212e-15 
   45       1.766484084505e-10       1.120805238776e-14       1.787876062092e-13       0.000000000000e+00       7.079567611272e-11       7.798904355780e-12      -8.072937162661e-15 
   46       1.791590523272e-10       1.204388706442e-14       1.627792987774e-13       0.000000000000e+00       6.756285811799e-11       7.479022565562e-12      -9.481086368592e-15 
   47       1.817008680067e-10       1.291678479715e-14       1.451037655250e-13       0.000000000000e+00       6.453562140126e-11       7.180319749006e-12      -1.082316215042e-14 
   48       1.842694542134e-10       1.382704578262e-14       1.256226477220e-13       0.000000000000e+00       6.170060568930e-11       6.900435463679e-12      -1.185903202381e-14 
   49       1.868569619997e-10       1.477491401731e-14       1.041817285296e-13       0.000000000000e+00       5.903413367141e-11       6.635781581341e-12      -1.231069097738e-14 
   50       1.894553089916e-10       1.576058617825e-14       8.065349215206e-14       0.000000000000e+00       5.650934388432e-11       6.382582569339e-12      -1.195046307703e-14 
   51       1.920674633225e-10       1.678424578779e-14       5.508045031648e-14       0.000000000000e+00       5.412152872039e-11       6.140519623290e-12      -1.089820970032e-14 
   52       1.946987661360e-10       1.784603483491e-14       2.756920758412e-14       0.000000000000e+00       5.186843968143e-11       5.909933832954e-12      -9.401532526820e-15 
   53       1.973536229687e-10       1.894604221835e-14      -1.748431383787e-15       0.000000000000e+00       4.974270476327e-11       5.690761727860e-12      -7.755031649447e-15 
   54       2.000354033671e-10       2.008430224179e-14      -3.271429290482e-14       0.000000000000e+00       4.773148357699e-11       5.482506025473e-12      -6.302657599579e-15 
   55       2.027464829926e-10       2.126081020770e-14      -6.518232761008e-14       0.000000000000e+00       4.582038616757e-11       5.284465638824e-12      -5.357167494906e-15 
   56       2.054886121571e-10       2.247557718214e-14      -9.914796640164e-14       0.000000000000e+00       4.400715957570e-11       5.096559623986e-12      -4.929674268542e-15 
   57       2.082624630100e-10       2.372858619900e-14      -1.346488518346e-13       0.000000000000e+00       4.229079722951e-11       4.918656681954e-12      -4.937031419040e-15 
   58       2.110674023016e-10       2.501977553312e-14      -1.717283594863e-13       0.000000000000e+00       4.066739826763e-11       4.750315098552e-12      -5.277983897616e-15 
   59       2.139013965516e-10       2.634903786167e-14      -2.104359743175e-13       0.000000000000e+00       3.912998877848e-11       4.590763593617e-12      -5.832290423738e-15 
   60       2.167609172166e-10       2.771621942564e-14      -2.508276670344e-13       0.000000000000e+00       3.766834303962e-11       4.438882170183e-12      -6.459845800719e-15 
   61       2.196424299316e-10       2.912106328147e-14      -2.929544269563e-13       0.000000000000e+00       3.627182359130e-11       4.293505519641e-12      -7.029627722320e-15 
   62       2.225474673929e-10       3.056302606838e-14      -3.368240014080e-13       0.000000000000e+00       3.493905080392e-11       4.154456143703e-12      -7.516115378711e-15 
   63       2.254785320393e-10       3.204141843729e-14      -3.824311970997e-13       0.000000000000e+00       3.367009641236e-11       4.021710199643e-12      -7.923054068155e-15 
   64       2.284375687678e-10       3.355545477046e-14      -4.297689663636e-13       0.000000000000e+00       3.246357487350e-11       3.895086667445e-12      -8.255607719031e-15 
   65       2.314259203634e-10       3.510425056892e-14      -4.788284077300e-13       0.000000000000e+00       3.131656039079e-11       3.774238433451e-12      -8.520427513975e-15 
   66       2.344442829284e-10       3.668681983997e-14      -5.295987665039e-13       0.000000000000e+00       3.022450393892e-11       3.658643373996e-12      -8.725720514012e-15 
   67       2.374926613114e-10       3.830207248457e-14      -5.820674353415e-13       0.000000000000e+00       2.918115028846e-11       3.547595439055e-12      -8.881318282695e-15 
   68       2.405708361280e-10       3.994893231533e-14      -6.362199022464e-13       0.000000000000e+00       2.818020881742e-11       3.440402731092e-12      -8.997655341005e-15 
   69       2.436799743384e-10       4.162672471920e-14      -6.920395810365e-13       0.000000000000e+00       2.722094455244e-11       3.337048279091e-12      -9.082310773375e-15 
   70       2.468212664456e-10       4.333486321307e-14      -7.495079474030e-13       0.000000000000e+00       2.630357616442e-11       3.237647752180e-12      -9.142885919611e-15 
   71       2.499954128577e-10       4.507273622748e-14      -8.086045876958e-13       0.000000000000e+00       2.542758498138e-11       3.142250753556e-12      -9.188072553177e-15 
   72       2.532025924010e-10       4.683970757929e-14      -8.693071981558e-13       0.000000000000e+00       2.459167686697e-11       3.050837198110e-12      -9.227693623763e-15 
   73       2.564424308335e-10       4.863511694429e-14      -9.315915841458e-13       0.000000000000e+00       2.379374409902e-11       2.963313690073e-12      -9.272743999859e-15 
   74       2.597139693586e-10       5.045828032979e-14      -9.954316593829e-13       0.000000000000e+00       2.303082724804e-11       2.879509900647e-12      -9.335431211320e-15 
   75       2.630156331382e-10       5.230849054731e-14      -1.060799445169e-12       0.000000000000e+00       2.229907705574e-11       2.799174945644e-12      -9.429216191942e-15 
   76       2.663458743742e-10       5.418485798767e-14      -1.127662176362e-12       0.000000000000e+00       2.159471003308e-11       2.722043942258e-12      -9.564914327006e-15 
   77       2.697053065381e-10       5.608579838072e-14      -1.195973011705e-12       0.000000000000e+00       2.091716070142e-11       2.648059698662e-12      -9.738087701293e-15 
   78       2.730949039317e-10       5.800945205081e-14      -1.265678620217e-12       0.000000000000e+00       2.026643758934e-11       2.577185057297e-12      -9.939417106160e-15 
   79       2.765153442776e-10       5.995383257080e-14      -1.336721865043e-12       0.000000000000e+00       1.964216305091e-11       2.509334154136e-12      -1.015839837745e-14 
   80       2.799669910657e-10       6.191682395995e-14      -1.409041743359e-12       0.000000000000e+00       1.904355552118e-11       2.444370235401e-12      -1.038330235144e-14 
   81       2.834498758984e-10       6.389617788180e-14      -1.482573326276e-12       0.000000000000e+00       1.846941177178e-11       2.382103474279e-12      -1.060113482075e-14 
   82       2.869636808373e-10       6.588951084209e-14      -1.557247698739e-12       0.000000000000e+00       1.791808916643e-11       2.322288787641e-12      -1.079759649031e-14 
   83       2.905077207492e-10       6.789430138666e-14      -1.632991899436e-12       0.000000000000e+00       1.738748791649e-11       2.264623652757e-12      -1.095704293326e-14 
   84       2.940813109397e-10       6.990813930015e-14      -1.709737258591e-12       0.000000000000e+00       1.687556144657e-11       2.208819423845e-12      -1.106573114540e-14 
   85       2.976849787512e-10       7.192952680655e-14      -1.787446131149e-12       0.000000000000e+00       1.638198357246e-11       2.154833648271e-12      -1.112226531533e-14 
   86       3.013194213888e-10       7.395720567075e-14      -1.866089505813e-12       0.000000000000e+00       1.590672645746e-11       2.102672439575e-12      -1.112881737439e-14 
   87       3.049851274766e-10       7.598991841925e-14      -1.945639081027e-12       0.000000000000e+00       1.544954833794e-11       2.052319467881e-12      -1.108800933390e-14 
   88       3.086823658798e-10       7.802640977334e-14      -2.026067346029e-12       0.000000000000e+00       1.500998465477e-11       2.003735011897e-12      -1.100292847802e-14 
   89       3.124111745257e-10       8.006542808230e-14      -2.107347661888e-12       0.000000000000e+00       1.458733918462e-11       1.956855010928e-12      -1.087714255663e-14 
   90       3.161713492253e-10       8.210572675665e-14      -2.189454342554e-12       0.000000000000e+00       1.418067517129e-11       1.911590116881e-12      -1.071471497824e-14 
   91       3.199624324948e-10       8.414606570129e-14      -2.272362735896e-12       0.000000000000e+00       1.378880645710e-11       1.867824746277e-12      -1.052022000285e-14 
   92       3.237837023771e-10       8.618521274878e-14      -2.356049304751e-12       0.000000000000e+00       1.341028861422e-11       1.825416132254e-12      -1.029875793483e-14 
   93       3.276344303222e-10       8.822183478225e-14      -2.440483619673e-12       0.000000000000e+00       1.304376167646e-11       1.784230169684e-12      -1.005548225133e-14 
   94       3.315147234755e-10       9.025414925975e-14      -2.525602783565e-12       0.000000000000e+00       1.268905656240e-11       1.744257176506e-12      -9.794066633502e-15 
   95       3.354247889913e-10       9.228022268515e-14      -2.611333292456e-12       0.000000000000e+00       1.234623943543e-11       1.705511871174e-12      -9.518034394007e-15 
   96       3.393646688760e-10       9.429807616855e-14      -2.697598751475e-12       0.000000000000e+00       1.201527094229e-11       1.667997693858e-12      -9.231234377722e-15 
   97       3.433342325034e-10       9.630568534529e-14      -2.784319844871e-12       0.000000000000e+00       1.169600217076e-11       1.631706363507e-12      -8.937849455062e-15 
   98       3.473331691292e-10       9.830098029493e-14      -2.871414306032e-12       0.000000000000e+00       1.138817060739e-11       1.596617434908e-12      -8.642405015279e-15 
   99       3.513609804058e-10       1.002818454603e-13      -2.958796887498e-12       0.000000000000e+00       1.109139609518e-11       1.562697855744e-12      -8.349777459761e-15 
  100       3.554169728971e-10       1.022461195663e-13      -3.046379330982e-12       0.000000000000e+00       1.080517679131e-11       1.529901523664e-12      -8.065202695336e-15 
  101       3.595002505934e-10       1.041915955392e-13      -3.134070337386e-12       0.000000000000e+00       1.052888512486e-11       1.498168843334e-12      -7.794284627570e-15 
  102       3.636097074262e-10       1.061160204255e-13      -3.221775536817e-12       0.000000000000e+00       1.026176375448e-11       1.467426283503e-12      -7.543003654072e-15 
  103       3.677440197829e-10       1.080170953108e-13      -3.309397458607e-12       0.000000000000e+00       1.000292152611e-11       1.437585934063e-12      -7.317725157790e-15 
  104       3.719019299690e-10       1.098925839121e-13      -3.396842033338e-12       0.000000000000e+00       9.751535499436e-12       1.408565522922e-12      -7.123732629254e-15 
  105       3.760831563271e-10       1.117406552357e-13      -3.484039163815e-12       0.000000000000e+00       9.507496814487e-12       1.380352500162e-12      -6.960583066531e-15 
  106       3.802875926793e-10       1.135595872715e-13      -3.570924889969e-12       0.000000000000e+00       9.270844942373e-12       1.352947825250e-12      -6.826137070630e-15 
  107       3.845150241226e-10       1.153476635536e-13      -3.657435146293e-12       0.000000000000e+00       9.041567651245e-12       1.326346064796e-12      -6.717970562601e-15 
